   P10ep1.DAT, CH4    09:39:55   28-May-03 N2=64
  ASSM64.DAT   09:36:46   28-May-03 df/dE for CH4, N2=64                
   10.000   16.043   .00071576   .00066692 Z, A, rho                    
   8.6000  287.800  200.000   first E, K-shell & sbb                    
   64    8.6422   1.01089 1.08304E-02  N2, E(1), um, u                  
   ( SABRAr2.DAT   08:55:52   27-May-03 )                               
  18.00  39.9480  .001782  .001661 Z, A, rho                            
     10.600     248.50    1100.00 first E, L-shell & sbb                
   64   10.6312   1.01089 1.08304E-02  N2, E(2), um, u                  
     .000     .000     .050 df/dE coefficients                          
    J  E(J)[eV]     ep(2,J)      ep(1,J)      df/dE(J)
    2 8.73600E+00  7.22990E-07  8.0776E-04  1.16488E-04
    3 8.83100E+00  2.18696E-06  8.2115E-04  3.56200E-04
    4 8.92800E+00  5.74877E-06  8.3427E-04  9.46523E-04
    5 9.02500E+00  1.25427E-05  8.4488E-04  2.08761E-03
    6 9.12300E+00  2.29265E-05  8.5162E-04  3.85745E-03
    7 9.22200E+00  3.60997E-05  8.5417E-04  6.14003E-03
    8 9.32300E+00  5.08886E-05  8.5339E-04  8.74965E-03
    9 9.42400E+00  6.58237E-05  8.4979E-04  1.14408E-02
   10 9.52700E+00  7.90684E-05  8.4556E-04  1.38925E-02
   11 9.63100E+00  8.86921E-05  8.4354E-04  1.57531E-02
   12 9.73600E+00  9.42937E-05  8.4583E-04  1.69304E-02
   13 9.84200E+00  9.61159E-05  8.5371E-04  1.74455E-02
   14 9.94900E+00  9.48293E-05  8.6826E-04  1.73994E-02
   15 1.00570E+01  9.22631E-05  8.8923E-04  1.71129E-02
   16 1.01670E+01  9.04309E-05  9.1543E-04  1.69557E-02
   17 1.02770E+01  9.06306E-05  9.4462E-04  1.71782E-02
   18 1.03890E+01  9.18735E-05  9.7803E-04  1.76034E-02
   19 1.05020E+01  9.26454E-05  1.0212E-03  1.79446E-02
   20 1.06170E+01  1.02661E-04  1.0636E-03  2.01031E-02
   21 1.07320E+01  1.00298E-04  1.1374E-03  1.98454E-02
   22 1.08490E+01  1.38820E-04  1.1993E-03  2.77876E-02
   23 1.09670E+01  1.63962E-04  1.3201E-03  3.31481E-02
   24 1.10870E+01  3.44717E-04  1.3371E-03  7.05019E-02
   25 1.12080E+01  5.32259E-04  1.3044E-03  1.10001E-01
   26 1.13300E+01  8.49763E-04  1.1001E-03  1.77563E-01
   27 1.14530E+01  1.11429E-03  7.6461E-04  2.35368E-01
   28 1.15780E+01  1.23628E-03  4.7718E-04  2.63964E-01
   29 1.17040E+01  1.34866E-03  1.7029E-04  2.91125E-01
   30 1.18310E+01  1.32677E-03 -8.6791E-05  2.89473E-01
   31 1.19600E+01  1.23064E-03 -3.0008E-04  2.71480E-01
   32 1.20900E+01  9.31438E-04 -2.6737E-04  2.07656E-01
   33 1.22220E+01  7.51007E-04 -1.5904E-04  1.69301E-01
   34 1.23550E+01  5.84245E-04 -2.9382E-05  1.33112E-01
   35 1.24900E+01  4.66412E-04  1.1601E-04  1.07438E-01
   36 1.26260E+01  4.11233E-04  2.1738E-04  9.57589E-02
   37 1.27630E+01  3.38300E-04  3.2041E-04  7.96275E-02
   38 1.29020E+01  2.81443E-04  4.4461E-04  6.69701E-02
   39 1.30430E+01  2.62795E-04  5.6226E-04  6.32127E-02
   40 1.31850E+01  2.72110E-04  6.5746E-04  6.61692E-02
   41 1.33280E+01  2.80992E-04  7.6716E-04  6.90668E-02
   42 1.34730E+01  3.47633E-04  8.7473E-04  8.63793E-02
   43 1.36200E+01  5.00054E-04  9.1222E-04  1.25611E-01
   44 1.37680E+01  6.97409E-04  8.4527E-04  1.77082E-01
   45 1.39180E+01  8.82098E-04  6.8551E-04  2.26424E-01
   46 1.40700E+01  9.82172E-04  5.0701E-04  2.54855E-01
   47 1.42230E+01  1.01037E-03  3.6011E-04  2.65028E-01
   48 1.43780E+01  9.79085E-04  2.6684E-04  2.59628E-01
   49 1.45340E+01  9.09149E-04  2.5469E-04  2.43688E-01
   50 1.46930E+01  8.81811E-04  2.7046E-04  2.38950E-01
   51 1.48530E+01  8.78490E-04  2.8072E-04  2.40637E-01
   52 1.50140E+01  8.98514E-04  2.7200E-04  2.48795E-01
   53 1.51780E+01  9.21432E-04  2.4100E-04  2.57937E-01
   54 1.53430E+01  9.22146E-04  2.1558E-04  2.60935E-01
   55 1.55100E+01  9.22107E-04  2.0247E-04  2.63765E-01
   56 1.56790E+01  9.29323E-04  1.8506E-04  2.68744E-01
   57 1.58500E+01  9.13910E-04  2.1066E-04  2.67132E-01
   58 1.60220E+01  1.00588E-03  1.5920E-04  2.97252E-01
   59 1.61970E+01  1.00075E-03  9.9348E-05  2.98916E-01
   60 1.63730E+01  1.00082E-03  6.7630E-05  3.02222E-01
   61 1.65520E+01  9.97440E-04  3.9960E-05  3.04476E-01
   62 1.67320E+01  9.93092E-04  1.6998E-05  3.06446E-01
   63 1.69140E+01  9.89763E-04 -4.3802E-06  3.08740E-01
   64 1.70980E+01  9.85597E-04 -2.4610E-05  3.10799E-01
   65 1.72840E+01  9.81415E-04 -4.3869E-05  3.12833E-01
   66 1.74730E+01  9.76821E-04 -6.2498E-05  3.14779E-01
   67 1.76630E+01  9.72264E-04 -8.0971E-05  3.16716E-01
   68 1.78550E+01  9.66577E-04 -9.9360E-05  3.18291E-01
   69 1.80500E+01  9.58841E-04 -1.1615E-04  3.19192E-01
   70 1.82460E+01  9.50773E-04 -1.3060E-04  3.19941E-01
   71 1.84450E+01  9.44452E-04 -1.4544E-04  3.21279E-01
   72 1.86460E+01  9.36874E-04 -1.6052E-04  3.22169E-01
   73 1.88490E+01  9.28219E-04 -1.7421E-04  3.22671E-01
   74 1.90540E+01  9.20126E-04 -1.8714E-04  3.23339E-01
   75 1.92620E+01  9.12341E-04 -2.0055E-04  3.24093E-01
   76 1.94710E+01  9.03588E-04 -2.1382E-04  3.24464E-01
   77 1.96830E+01  8.93827E-04 -2.2602E-04  3.24462E-01
   78 1.98980E+01  8.84279E-04 -2.3755E-04  3.24498E-01
   79 2.01140E+01  8.74710E-04 -2.4874E-04  3.24468E-01
   80 2.03330E+01  8.65005E-04 -2.5960E-04  3.24365E-01
   81 2.05550E+01  8.55503E-04 -2.7053E-04  3.24305E-01
   82 2.07790E+01  8.45711E-04 -2.8172E-04  3.24088E-01
   83 2.10050E+01  8.34957E-04 -2.9263E-04  3.23457E-01
   84 2.12340E+01  8.23141E-04 -3.0225E-04  3.22354E-01
   85 2.14650E+01  8.11984E-04 -3.1104E-04  3.21436E-01
   86 2.16990E+01  8.01333E-04 -3.2011E-04  3.20675E-01
   87 2.19350E+01  7.90478E-04 -3.2956E-04  3.19771E-01
   88 2.21740E+01  7.78747E-04 -3.3888E-04  3.18464E-01
   89 2.24150E+01  7.66166E-04 -3.4716E-04  3.16733E-01
   90 2.26590E+01  7.53848E-04 -3.5462E-04  3.15024E-01
   91 2.29060E+01  7.42095E-04 -3.6213E-04  3.13492E-01
   92 2.31550E+01  7.30386E-04 -3.7021E-04  3.11898E-01
   93 2.34070E+01  7.17497E-04 -3.7824E-04  3.09736E-01
   94 2.36620E+01  7.03138E-04 -3.8431E-04  3.06843E-01
   95 2.39200E+01  6.90439E-04 -3.8901E-04  3.04588E-01
   96 2.41810E+01  6.80237E-04 -3.9564E-04  3.03360E-01
   97 2.44440E+01  6.68611E-04 -4.0402E-04  3.01415E-01
   98 2.47100E+01  6.54759E-04 -4.1129E-04  2.98389E-01
   99 2.49790E+01  6.41385E-04 -4.1779E-04  2.95470E-01
  100 2.52510E+01  6.27484E-04 -4.2447E-04  2.92217E-01
  101 2.55260E+01  6.11223E-04 -4.2749E-04  2.87741E-01
  102 2.58040E+01  6.01229E-04 -4.2802E-04  2.86114E-01
  103 2.60850E+01  6.04348E-04 -4.4365E-04  2.90741E-01
  104 2.63690E+01  5.92692E-04 -4.7666E-04  2.88228E-01
  105 2.66560E+01  5.42164E-04 -4.8757E-04  2.66533E-01
  106 2.69460E+01  4.98723E-04 -4.6153E-04  2.47842E-01
  107 2.72400E+01  4.99438E-04 -4.4596E-04  2.50909E-01
  108 2.75370E+01  4.94274E-04 -4.4957E-04  2.51011E-01
  109 2.78360E+01  4.89252E-04 -4.6609E-04  2.51177E-01
  110 2.81390E+01  4.53083E-04 -4.6477E-04  2.35114E-01
  111 2.84460E+01  4.50155E-04 -4.6442E-04  2.36168E-01
  112 2.87560E+01  4.32491E-04 -4.7977E-04  2.29360E-01
  113 2.90690E+01  3.92618E-04 -4.7663E-04  2.10483E-01
  114 2.93850E+01  3.69793E-04 -4.6021E-04  2.00406E-01
  115 2.97050E+01  3.59285E-04 -4.5266E-04  1.96825E-01
  116 3.00290E+01  3.43640E-04 -4.5060E-04  1.90314E-01
  117 3.03560E+01  3.25686E-04 -4.4647E-04  1.82329E-01
  118 3.06860E+01  3.08579E-04 -4.4063E-04  1.74634E-01
  119 3.10200E+01  2.92602E-04 -4.3445E-04  1.67396E-01
  120 3.13580E+01  2.77562E-04 -4.2871E-04  1.60515E-01
  121 3.17000E+01  2.62513E-04 -4.2363E-04  1.53468E-01
  122 3.20450E+01  2.46390E-04 -4.1814E-04  1.45621E-01
  123 3.23940E+01  2.29777E-04 -4.1113E-04  1.37271E-01
  124 3.27470E+01  2.13941E-04 -4.0274E-04  1.29207E-01
  125 3.31030E+01  1.99544E-04 -3.9397E-04  1.21819E-01
  126 3.34640E+01  1.85968E-04 -3.8545E-04  1.14768E-01
  127 3.38280E+01  1.72663E-04 -3.7699E-04  1.07714E-01
  128 3.41960E+01  1.59554E-04 -3.6821E-04  1.00621E-01
  129 3.45690E+01  1.46789E-04 -3.5896E-04  9.35851E-02
  130 3.49450E+01  1.34594E-04 -3.4928E-04  8.67425E-02
  131 3.53260E+01  1.23049E-04 -3.3922E-04  8.01684E-02
  132 3.57100E+01  1.12357E-04 -3.2897E-04  7.39992E-02
  133 3.60990E+01  1.02454E-04 -3.1868E-04  6.82101E-02
  134 3.64920E+01  9.32933E-05 -3.0846E-04  6.27863E-02
  135 3.68900E+01  8.47601E-05 -2.9834E-04  5.76660E-02
  136 3.72910E+01  7.68601E-05 -2.8831E-04  5.28598E-02
  137 3.76980E+01  6.96237E-05 -2.7839E-04  4.84050E-02
  138 3.81080E+01  6.30263E-05 -2.6877E-04  4.42949E-02
  139 3.85230E+01  5.68057E-05 -2.5931E-04  4.03583E-02
  140 3.89430E+01  5.11407E-05 -2.4998E-04  3.67304E-02
  141 3.93670E+01  4.60141E-05 -2.4094E-04  3.34074E-02
  142 3.97950E+01  4.11791E-05 -2.3207E-04  3.02223E-02
  143 4.02290E+01  3.68224E-05 -2.2326E-04  2.73194E-02
  144 4.06670E+01  3.30573E-05 -2.1468E-04  2.47930E-02
  145 4.11090E+01  2.97762E-05 -2.0644E-04  2.25752E-02
  146 4.15570E+01  2.68860E-05 -1.9849E-04  2.06060E-02
  147 4.20100E+01  2.43932E-05 -1.9086E-04  1.88996E-02
  148 4.24670E+01  2.22919E-05 -1.8363E-04  1.74589E-02
  149 4.29300E+01  2.04131E-05 -1.7677E-04  1.61617E-02
  150 4.33970E+01  1.86999E-05 -1.7018E-04  1.49663E-02
  151 4.38700E+01  1.72535E-05 -1.6382E-04  1.39594E-02
  152 4.43470E+01  1.60692E-05 -1.5779E-04  1.31426E-02
  153 4.48300E+01  1.50690E-05 -1.5209E-04  1.24588E-02
  154 4.53180E+01  1.41755E-05 -1.4670E-04  1.18476E-02
  155 4.58120E+01  1.33500E-05 -1.4156E-04  1.12792E-02
  156 4.63110E+01  1.25983E-05 -1.3660E-04  1.07601E-02
  157 4.68150E+01  1.19627E-05 -1.3182E-04  1.03285E-02
  158 4.73250E+01  1.14674E-05 -1.2724E-04  1.00085E-02
  159 4.78400E+01  1.11455E-05 -1.2300E-04  9.83374E-03
  160 4.83610E+01  1.05796E-05 -1.1882E-04  9.43568E-03
  161 4.88880E+01  1.03562E-05 -1.1473E-04  9.33748E-03
  162 4.94200E+01  1.02198E-05 -1.1093E-04  9.31461E-03
  163 4.99580E+01  1.01100E-05 -1.0735E-04  9.31492E-03
  164 5.05020E+01  1.00329E-05 -1.0395E-04  9.34453E-03
  165 5.10520E+01  9.96280E-06 -1.0071E-04  9.38033E-03
  166 5.16080E+01  9.89905E-06 -9.7620E-05  9.42181E-03
  167 5.21700E+01  9.84827E-06 -9.4654E-05  9.47544E-03
  168 5.27380E+01  9.81520E-06 -9.1810E-05  9.54647E-03
  169 5.33120E+01  9.80192E-06 -8.9089E-05  9.63729E-03
  170 5.38930E+01  9.80371E-06 -8.6487E-05  9.74415E-03
  171 5.44800E+01  9.81179E-06 -8.4005E-05  9.85828E-03
  172 5.50730E+01  9.81392E-06 -8.1636E-05  9.96773E-03
  173 5.56730E+01  9.80109E-06 -7.9355E-05  1.00632E-02
  174 5.62790E+01  9.78435E-06 -7.7151E-05  1.01555E-02
  175 5.68920E+01  9.77906E-06 -7.5023E-05  1.02604E-02
  176 5.75110E+01  9.78445E-06 -7.2982E-05  1.03779E-02
  177 5.81380E+01  9.79366E-06 -7.1026E-05  1.05010E-02
  178 5.87710E+01  9.79323E-06 -6.9158E-05  1.06148E-02
  179 5.94110E+01  9.76778E-06 -6.7356E-05  1.07025E-02
  180 6.00580E+01  9.72791E-06 -6.5595E-05  1.07748E-02
  181 6.07120E+01  9.70449E-06 -6.3879E-05  1.08658E-02
  182 6.13730E+01  9.70375E-06 -6.2233E-05  1.09835E-02
  183 6.20410E+01  9.69646E-06 -6.0666E-05  1.10945E-02
  184 6.27170E+01  9.66271E-06 -5.9149E-05  1.11769E-02
  185 6.33990E+01  9.62315E-06 -5.7664E-05  1.12516E-02
  186 6.40900E+01  9.60537E-06 -5.6219E-05  1.13534E-02
  187 6.47880E+01  9.60210E-06 -5.4841E-05  1.14728E-02
  188 6.54930E+01  9.58756E-06 -5.3528E-05  1.15805E-02
  189 6.62060E+01  9.55196E-06 -5.2259E-05  1.16627E-02
  190 6.69270E+01  9.50834E-06 -5.1021E-05  1.17359E-02
  191 6.76560E+01  9.47008E-06 -4.9819E-05  1.18159E-02
  192 6.83930E+01  9.43333E-06 -4.8664E-05  1.18985E-02
  193 6.91380E+01  9.38783E-06 -4.7554E-05  1.19699E-02
  194 6.98900E+01  9.32899E-06 -4.6483E-05  1.20247E-02
  195 7.06520E+01  9.25965E-06 -4.5439E-05  1.20658E-02
  196 7.14210E+01  9.18366E-06 -4.4426E-05  1.20967E-02
  197 7.21990E+01  9.10091E-06 -4.3441E-05  1.21183E-02
  198 7.29850E+01  9.00995E-06 -4.2483E-05  1.21278E-02
  199 7.37800E+01  8.91057E-06 -4.1547E-05  1.21249E-02
  200 7.45830E+01  8.80767E-06 -4.0629E-05  1.21149E-02
  201 7.53950E+01  8.70748E-06 -3.9731E-05  1.21078E-02
  202 7.62160E+01  8.61186E-06 -3.8858E-05  1.21050E-02
  203 7.70460E+01  8.51658E-06 -3.8013E-05  1.21013E-02
  204 7.78850E+01  8.41651E-06 -3.7196E-05  1.20893E-02
  205 7.87330E+01  8.30940E-06 -3.6401E-05  1.20655E-02
  206 7.95900E+01  8.19571E-06 -3.5625E-05  1.20298E-02
  207 8.04570E+01  8.07656E-06 -3.4865E-05  1.19847E-02
  208 8.13330E+01  7.95417E-06 -3.4119E-05  1.19310E-02
  209 8.22190E+01  7.83205E-06 -3.3386E-05  1.18761E-02
  210 8.31140E+01  7.71405E-06 -3.2667E-05  1.18245E-02
  211 8.40190E+01  7.60004E-06 -3.1968E-05  1.17767E-02
  212 8.49340E+01  7.48692E-06 -3.1289E-05  1.17277E-02
  213 8.58590E+01  7.37155E-06 -3.0629E-05  1.16726E-02
  214 8.67940E+01  7.25217E-06 -2.9986E-05  1.16087E-02
  215 8.77390E+01  7.12890E-06 -2.9358E-05  1.15354E-02
  216 8.86950E+01  7.00236E-06 -2.8740E-05  1.14537E-02
  217 8.96600E+01  6.87370E-06 -2.8134E-05  1.13661E-02
  218 9.06370E+01  6.74490E-06 -2.7536E-05  1.12742E-02
  219 9.16240E+01  6.61871E-06 -2.6948E-05  1.11842E-02
  220 9.26210E+01  6.49725E-06 -2.6372E-05  1.10987E-02
  221 9.36300E+01  6.37944E-06 -2.5809E-05  1.10162E-02
  222 9.46500E+01  6.26291E-06 -2.5260E-05  1.09324E-02
  223 9.56800E+01  6.14526E-06 -2.4726E-05  1.08437E-02
  224 9.67220E+01  6.02503E-06 -2.4203E-05  1.07477E-02
  225 9.77750E+01  5.90382E-06 -2.3688E-05  1.06458E-02
  226 9.88400E+01  5.78281E-06 -2.3180E-05  1.05412E-02
  227 9.99160E+01  5.66371E-06 -2.2679E-05  1.04366E-02
  228 1.01004E+02  5.54793E-06 -2.2186E-05  1.03342E-02
  229 1.02104E+02  5.43701E-06 -2.1700E-05  1.02383E-02
  230 1.03216E+02  5.33248E-06 -2.1224E-05  1.01506E-02
  231 1.04340E+02  5.23504E-06 -2.0760E-05  1.00737E-02
  232 1.05476E+02  5.14239E-06 -2.0311E-05  1.00028E-02
  233 1.06625E+02  5.05018E-06 -1.9878E-05  9.93069E-03
  234 1.07786E+02  4.95481E-06 -1.9460E-05  9.84903E-03
  235 1.08960E+02  4.85304E-06 -1.9051E-05  9.75166E-03
  236 1.10146E+02  4.74702E-06 -1.8647E-05  9.64275E-03
  237 1.11345E+02  4.64006E-06 -1.8245E-05  9.52808E-03
  238 1.12558E+02  4.53556E-06 -1.7847E-05  9.41499E-03
  239 1.13784E+02  4.43668E-06 -1.7453E-05  9.31019E-03
  240 1.15023E+02  4.34300E-06 -1.7069E-05  9.21287E-03
  241 1.16275E+02  4.25251E-06 -1.6695E-05  9.11910E-03
  242 1.17541E+02  4.16276E-06 -1.6331E-05  9.02375E-03
  243 1.18821E+02  4.07131E-06 -1.5976E-05  8.92178E-03
  244 1.20115E+02  3.97790E-06 -1.5627E-05  8.81203E-03
  245 1.21423E+02  3.88391E-06 -1.5282E-05  8.69744E-03
  246 1.22745E+02  3.79207E-06 -1.4941E-05  8.58410E-03
  247 1.24082E+02  3.70187E-06 -1.4606E-05  8.47135E-03
  248 1.25433E+02  3.61137E-06 -1.4278E-05  8.35415E-03
  249 1.26799E+02  3.52052E-06 -1.3952E-05  8.23260E-03
  250 1.28180E+02  3.43070E-06 -1.3629E-05  8.11012E-03
  251 1.29575E+02  3.34389E-06 -1.3309E-05  7.99079E-03
  252 1.30986E+02  3.25960E-06 -1.2992E-05  7.87430E-03
  253 1.32413E+02  3.17817E-06 -1.2677E-05  7.76132E-03
  254 1.33855E+02  3.09605E-06 -1.2363E-05  7.64286E-03
  255 1.35312E+02  3.01896E-06 -1.2048E-05  7.53399E-03
  256 1.36786E+02  2.91754E-06 -1.1650E-05  7.35967E-03
  257 1.38275E+02  3.08151E-06 -1.1366E-05  7.85869E-03
  258 1.39781E+02  3.02805E-06 -1.1216E-05  7.80581E-03
  259 1.41303E+02  2.93713E-06 -1.0999E-05  7.65428E-03
  260 1.42842E+02  2.85926E-06 -1.0760E-05  7.53236E-03
  261 1.44397E+02  2.78023E-06 -1.0520E-05  7.40383E-03
  262 1.45970E+02  2.70300E-06 -1.0278E-05  7.27655E-03
  263 1.47559E+02  2.62897E-06 -1.0036E-05  7.15439E-03
  264 1.49166E+02  2.55842E-06 -9.7982E-06  7.03820E-03
  265 1.50790E+02  2.48365E-06 -9.5606E-06  6.90691E-03
  266 1.52432E+02  2.41580E-06 -9.3229E-06  6.79133E-03
  267 1.54092E+02  2.34980E-06 -9.0895E-06  6.67765E-03
  268 1.55770E+02  2.28557E-06 -8.8590E-06  6.56601E-03
  269 1.57466E+02  2.22323E-06 -8.6314E-06  6.45641E-03
  270 1.59181E+02  2.16256E-06 -8.4069E-06  6.34862E-03
  271 1.60914E+02  2.10355E-06 -8.1852E-06  6.24277E-03
  272 1.62667E+02  2.04622E-06 -7.9663E-06  6.13872E-03
  273 1.64438E+02  1.99052E-06 -7.7504E-06  6.03649E-03
  274 1.66228E+02  1.93632E-06 -7.5374E-06  5.93612E-03
  275 1.68039E+02  1.88354E-06 -7.3268E-06  5.83734E-03
  276 1.69868E+02  1.83234E-06 -7.1190E-06  5.74037E-03
  277 1.71718E+02  1.78249E-06 -6.9136E-06  5.64500E-03
  278 1.73588E+02  1.73403E-06 -6.7107E-06  5.55129E-03
  279 1.75478E+02  1.68691E-06 -6.5101E-06  5.45922E-03
  280 1.77389E+02  1.64107E-06 -6.3117E-06  5.36868E-03
  281 1.79321E+02  1.59646E-06 -6.1153E-06  5.27978E-03
  282 1.81273E+02  1.55316E-06 -5.9209E-06  5.19230E-03
  283 1.83247E+02  1.51099E-06 -5.7282E-06  5.10636E-03
  284 1.85243E+02  1.47000E-06 -5.5371E-06  5.02190E-03
  285 1.87260E+02  1.43006E-06 -5.3474E-06  4.93888E-03
  286 1.89299E+02  1.39133E-06 -5.1590E-06  4.85725E-03
  287 1.91360E+02  1.35355E-06 -4.9715E-06  4.77703E-03
  288 1.93444E+02  1.31684E-06 -4.7847E-06  4.69807E-03
  289 1.95551E+02  1.28120E-06 -4.5983E-06  4.62054E-03
  290 1.97680E+02  1.24649E-06 -4.4122E-06  4.54435E-03
  291 1.99833E+02  1.21270E-06 -4.2259E-06  4.46933E-03
  292 2.02009E+02  1.17985E-06 -4.0390E-06  4.39563E-03
  293 2.04208E+02  1.14795E-06 -3.8512E-06  4.32329E-03
  294 2.06432E+02  1.11688E-06 -3.6617E-06  4.25205E-03
  295 2.08680E+02  1.08664E-06 -3.4702E-06  4.18201E-03
  296 2.10952E+02  1.05726E-06 -3.2759E-06  4.11319E-03
  297 2.13250E+02  1.02860E-06 -3.0777E-06  4.04548E-03
  298 2.15572E+02  1.00081E-06 -2.8749E-06  3.97894E-03
  299 2.17919E+02  9.73751E-07 -2.6662E-06  3.91350E-03
  300 2.20292E+02  9.47454E-07 -2.4498E-06  3.84912E-03
  301 2.22691E+02  9.21806E-07 -2.2239E-06  3.78584E-03
  302 2.25116E+02  8.96887E-07 -1.9856E-06  3.72361E-03
  303 2.27567E+02  8.72644E-07 -1.7316E-06  3.66236E-03
  304 2.30045E+02  8.49101E-07 -1.4569E-06  3.60238E-03
  305 2.32550E+02  8.25981E-07 -1.1542E-06  3.54246E-03
  306 2.35083E+02  8.04293E-07 -8.1380E-07  3.48717E-03
  307 2.37642E+02  7.80181E-07 -4.1516E-07  3.41887E-03
  308 2.40230E+02  7.68149E-07  5.7328E-08  3.40458E-03
  309 2.42846E+02  7.13134E-07  7.1849E-07  3.19004E-03
  310 2.45491E+02  8.23661E-07  1.5036E-06  3.73889E-03
  311 2.48164E+02  3.08849E-07  4.4417E-06  1.39587E-03
  312 2.50866E+02  6.43083E-06  4.8003E-06  2.97727E-02
  313 2.53598E+02  7.31734E-06  1.5079E-06  3.42108E-02
  314 2.56359E+02  6.66930E-06 -9.1565E-08  3.15374E-02
  315 2.59151E+02  6.28687E-06 -7.2349E-07  3.00455E-02
  316 2.61973E+02  6.00046E-06 -1.1060E-06  2.89917E-02
  317 2.64826E+02  5.88354E-06 -1.3992E-06  2.87350E-02
  318 2.67709E+02  5.82564E-06 -1.8444E-06  2.87638E-02
  319 2.70625E+02  5.33176E-06 -2.1208E-06  2.66096E-02
  320 2.73571E+02  5.12805E-06 -2.1375E-06  2.58738E-02
  321 2.76550E+02  4.98697E-06 -2.2032E-06  2.54343E-02
  322 2.79562E+02  4.82092E-06 -2.2497E-06  2.48560E-02
  323 2.82606E+02  4.69112E-06 -2.2325E-06  2.44502E-02
  324 2.85683E+02  4.63124E-06 -2.1142E-06  2.44008E-02
  325 2.88794E+02  4.95408E-06 -2.2880E-06  2.63858E-02
  326 2.91939E+02  4.68514E-06 -2.5674E-06  2.52256E-02
  327 2.95118E+02  4.55209E-06 -2.6149E-06  2.47761E-02
  328 2.98332E+02  4.43636E-06 -2.6586E-06  2.44090E-02
  329 3.01580E+02  4.35682E-06 -2.7100E-06  2.42321E-02
  330 3.04864E+02  4.25157E-06 -2.7735E-06  2.39046E-02
  331 3.08184E+02  4.12771E-06 -2.8060E-06  2.34601E-02
  332 3.11540E+02  4.03923E-06 -2.8234E-06  2.32076E-02
  333 3.14932E+02  3.95107E-06 -2.8493E-06  2.29486E-02
  334 3.18362E+02  3.86265E-06 -2.8744E-06  2.26791E-02
  335 3.21829E+02  3.77235E-06 -2.8967E-06  2.23898E-02
  336 3.25333E+02  3.68171E-06 -2.9143E-06  2.20898E-02
  337 3.28876E+02  3.59286E-06 -2.9280E-06  2.17922E-02
  338 3.32457E+02  3.50454E-06 -2.9386E-06  2.14872E-02
  339 3.36077E+02  3.41753E-06 -2.9459E-06  2.11822E-02
  340 3.39737E+02  3.33204E-06 -2.9507E-06  2.08773E-02
  341 3.43436E+02  3.24868E-06 -2.9554E-06  2.05767E-02
  342 3.47176E+02  3.16083E-06 -2.9575E-06  2.02385E-02
  343 3.50957E+02  3.07452E-06 -2.9538E-06  1.99002E-02
  344 3.54778E+02  2.99134E-06 -2.9474E-06  1.95729E-02
